# depth (m),temp,temp_corrected
0,14.2362,14.2362
0.1524,14.2362,14.236043
0.3048,14.2362,14.235886
0.4572,14.2362,14.235729
0.6096,14.2362,14.235572
0.762,14.2362,14.235415
0.9144,14.2362,14.235258
1.0668,14.2362,14.235101
1.2192,14.2362,14.234944
1.3716,14.2362,14.234787
1.524,14.2362,14.23463
1.6764,14.2362,14.234473
1.8288,14.2362,14.234316
1.9812,14.2362,14.234159
2.1336,14.2362,14.234002
2.286,14.2362,14.233845
2.4384,14.2362,14.233688
2.5908,14.2169,14.214231
2.7432,14.1942,14.191374
2.8956,14.1768,14.173817
3.048,14.1602,14.15706
3.2004,14.1516,14.148303
3.3528,14.1451,14.141646
3.5052,14.138,14.134389
3.6576,14.1307,14.126932
3.81,14.1255,14.121575
3.9624,14.1242,14.120118
4.1148,14.1334,14.129161
4.2672,14.1483,14.143904
4.4196,14.1602,14.155647
4.572,14.1686,14.16389
4.7244,14.1777,14.172833
4.8768,14.1862,14.181176
5.0292,14.2014,14.196219
5.1816,14.2433,14.237962
5.334,15.2793,15.273805
5.4864,15.2189,15.213248
5.6388,15.236,15.230191
5.7912,15.2971,15.291134
5.9436,15.3665,15.360377
6.096,15.4103,15.40402
6.2484,15.4045,15.398063
6.4008,15.392,15.385406
6.5532,15.3784,15.371649
6.7056,15.376,15.369092
6.858,15.3834,15.376335
7.0104,15.3962,15.388978
7.1628,15.4292,15.421821
7.3152,15.47,15.462464
7.4676,15.5142,15.506507
7.62,15.5672,15.55935
7.7724,15.6188,15.610793
7.9248,15.6635,15.655336
8.0772,15.7053,15.696979
8.2296,15.7428,15.734322
8.382,15.7819,15.773265
8.5344,15.819,15.810208
8.6868,15.8543,15.845351
8.8392,15.8915,15.882394
8.9916,15.927,15.917737
9.144,15.9581,15.94868
9.2964,15.9917,15.982123
9.4488,16.0191,16.009366
9.6012,16.0375,16.027609
9.7536,16.0456,16.035552
9.906,16.0448,16.034595
10.0584,16.0464,16.036038
10.2108,16.0514,16.040881
10.3632,16.0596,16.048924
10.5156,16.0778,16.066967
10.668,16.1029,16.09191
10.8204,16.1412,16.130053
10.9728,16.1822,16.170896
11.1252,16.2175,16.206039
11.2776,16.2424,16.230782
11.43,16.252,16.240226
11.5824,16.2503,16.238369
11.7348,16.2467,16.234612
11.8872,16.2501,16.237855
12.0396,16.2738,16.261398
12.192,16.3099,16.297341
12.3444,16.3553,16.342584
12.4968,16.405,16.392127
12.6492,16.4548,16.44177
12.8016,16.5015,16.488313
12.954,16.5454,16.532056
13.1064,16.5744,16.560899
13.2588,16.5922,16.578542
13.4112,16.6019,16.588085
13.5636,16.6081,16.594128
13.716,16.6214,16.607271
13.8684,16.6401,16.625814
14.0208,16.6585,16.644057
14.1732,16.6782,16.6636
14.3256,16.6942,16.679444
14.478,16.7066,16.691687
14.6304,16.7151,16.70003
14.7828,16.7228,16.707573
14.9352,16.7312,16.715816
15.0876,16.7365,16.720959
15.24,16.7408,16.725102
15.3924,16.7429,16.727045
15.5448,16.745,16.728988
15.6972,16.7479,16.731731
15.8496,16.7494,16.733074
16.002,16.7483,16.731817
16.1544,16.7461,16.729461
16.3068,16.7445,16.727704
16.4592,16.7449,16.727947
16.6116,16.7431,16.72599
16.764,16.7388,16.721533
16.9164,16.735,16.717576
17.0688,16.7291,16.711519
17.2212,16.7194,16.701662
17.3736,16.7091,16.691205
17.526,16.7016,16.683548
17.6784,16.7003,16.682092
17.8308,16.7031,16.684735
17.9832,16.7071,16.688578
18.1356,16.7095,16.690821
18.288,16.7098,16.690964
18.4404,16.7107,16.691707
18.5928,16.7146,16.69545
18.7452,16.7237,16.704393
18.8976,16.7381,16.718636
19.05,16.7578,16.73818
19.2024,16.7768,16.757023
19.3548,16.7907,16.770766
19.5072,16.8011,16.781009
19.6596,16.8077,16.787452
19.812,16.8149,16.794495
19.9644,16.8268,16.806238
20.1168,16.841,16.820282
20.2692,16.8556,16.834725
20.4216,16.8695,16.848468
20.574,16.8807,16.859511
20.7264,16.887,16.865654
20.8788,16.8937,16.872197
21.0312,16.9061,16.88444
21.1836,16.9237,16.901884
21.336,16.9435,16.921527
21.4884,16.9622,16.94007
21.6408,16.9758,16.953513
21.7932,16.9864,16.963956
21.9456,16.995,16.972399
22.098,17.0052,16.982443
22.2504,17.0178,16.994886
22.4028,17.031,17.007929
22.5552,17.0431,17.019872
22.7076,17.0523,17.028915
22.86,17.0587,17.035159
23.0124,17.0634,17.039702
23.1648,17.068,17.044145
23.3172,17.0717,17.047688
23.4696,17.0755,17.051331
23.622,17.0797,17.055375
23.7744,17.084,17.059518
23.9268,17.0861,17.061461
24.0792,17.0876,17.062804
24.2316,17.0897,17.064747
24.384,17.0951,17.069991
24.5364,17.1021,17.076834
24.6888,17.1107,17.085277
24.8412,17.1215,17.09592
24.9936,17.1332,17.107464
25.146,17.1454,17.119507
25.2984,17.1582,17.13215
25.4508,17.1712,17.144993
25.6032,17.1827,17.156336
25.7556,17.192,17.16548
25.908,17.1997,17.173023
26.0604,17.208,17.181166
26.2128,17.2185,17.191509
26.3652,17.2325,17.205353
26.5176,17.2463,17.218996
26.67,17.2577,17.230239
26.8224,17.27,17.242383
26.9748,17.2799,17.252126
27.1272,17.2884,17.260469
27.2796,17.2953,17.267212
27.432,17.3022,17.273956
27.5844,17.3099,17.281499
27.7368,17.3166,17.288042
27.8892,17.3212,17.292485
28.0416,17.3233,17.294429
28.194,17.3225,17.293472
28.3464,17.3223,17.293115
28.4988,17.322,17.292659
28.6512,17.3235,17.294002
28.8036,17.3251,17.295445
28.956,17.3273,17.297489
29.1084,17.3301,17.300132
29.2608,17.3328,17.302675
29.4132,17.3356,17.305319
29.5656,17.3386,17.308162
29.718,17.3433,17.312705
29.8704,17.3488,17.318049
30.0228,17.3552,17.324292
30.1752,17.3604,17.329335
30.3276,17.366,17.334779
30.48,17.3721,17.340722
30.6324,17.3792,17.347665
30.7848,17.3865,17.354809
30.9372,17.3937,17.361852
31.0896,17.3995,17.367495
31.242,17.405,17.372839
31.3944,17.4089,17.376582
31.5468,17.4159,17.383425
31.6992,17.422,17.389369
31.8516,17.4284,17.395612
32.004,17.4361,17.403156
32.1564,17.4439,17.410799
32.3088,17.4511,17.417842
32.4612,17.4587,17.425286
32.6136,17.4665,17.432929
32.766,17.4747,17.440973
32.9184,17.4827,17.448816
33.0708,17.4908,17.456759
33.2232,17.4991,17.464903
33.3756,17.5076,17.473246
33.528,17.5158,17.48129
33.6804,17.5237,17.489033
33.8328,17.532,17.497176
33.9852,17.5402,17.50522
34.1376,17.5489,17.513763
34.29,17.5579,17.522607
34.4424,17.5673,17.53185
34.5948,17.5757,17.540094
34.7472,17.5839,17.548137
34.8996,17.5926,17.556681
35.052,17.6019,17.565824
35.2044,17.6095,17.573268
35.3568,17.618,17.581611
35.5092,17.6267,17.590154
35.6616,17.6358,17.599098
35.814,17.6436,17.606741
35.9664,17.6511,17.614085
36.1188,17.6584,17.621228
36.2712,17.6673,17.629972
36.4236,17.6763,17.638815
36.576,17.6846,17.646959
36.7284,17.6924,17.654602
36.8808,17.7004,17.662446
37.0332,17.7094,17.671289
37.1856,17.7184,17.680133
37.338,17.7283,17.689876
37.4904,17.7369,17.69832
37.6428,17.7451,17.706364
37.7952,17.7529,17.714007
37.9476,17.7615,17.722451
38.1,17.7705,17.731294
38.2524,17.7794,17.740038
38.4048,17.7884,17.748881
38.5572,17.7974,17.757725
38.7096,17.8067,17.766868
38.862,17.8151,17.775112
39.0144,17.8226,17.782456
39.1668,17.8286,17.788299
39.3192,17.8338,17.793343
39.4716,17.8384,17.797786
39.624,17.8412,17.80043
39.7764,17.8449,17.803974
39.9288,17.8469,17.805817
40.0812,17.8486,17.807361
40.2336,17.8487,17.807304
40.386,17.8487,17.807148
40.5384,17.8489,17.807192
40.6908,17.8508,17.808935
40.8432,17.8537,17.811679
40.9956,17.8564,17.814222
41.148,17.8598,17.817466
41.3004,17.863,17.82051
41.4528,17.8664,17.823753
41.6052,17.8688,17.825997
41.7576,17.8715,17.828541
41.91,17.8748,17.831684
42.0624,17.8786,17.835328
42.2148,17.883,17.839572
42.3672,17.8872,17.843615
42.5196,17.8911,17.847359
42.672,17.8951,17.851203
42.8244,17.8994,17.855346
42.9768,17.9042,17.85999
43.1292,17.9092,17.864834
43.2816,17.9151,17.870578
43.434,17.922,17.877321
43.5864,17.9292,17.884365
43.7388,17.9363,17.891309
43.8912,17.9441,17.898952
44.0436,17.9541,17.908796
44.196,17.9678,17.92234
44.3484,17.9835,17.937884
44.5008,18.0024,17.956627
44.6532,18.0321,17.986171
44.8056,18.0667,18.020615
44.958,18.1027,18.056459
45.1104,18.1366,18.090203
45.2628,18.1725,18.125946
45.4152,18.213,18.16629
45.5676,18.2536,18.206734
45.72,18.2925,18.245478
45.8724,18.3301,18.282921
46.0248,18.3636,18.316265
46.1772,18.3925,18.345009
46.3296,18.4163,18.368653
46.482,18.4373,18.389497
46.6344,18.4562,18.408241
46.7868,18.4741,18.425984
46.9392,18.4914,18.443128
47.0916,18.5084,18.459972
47.244,18.5249,18.476316
47.3964,18.5413,18.49256
47.5488,18.5597,18.510804
47.7012,18.5788,18.529747
47.8536,18.5983,18.549091
48.006,18.615,18.565635
48.1584,18.6299,18.580379
48.3108,18.642,18.592323
48.4632,18.6511,18.601267
48.6156,18.6574,18.607411
48.768,18.664,18.613855
48.9204,18.6723,18.621999
49.0728,18.6818,18.631342
49.2252,18.6919,18.641286
49.3776,18.7016,18.65083
49.53,18.7106,18.659674
49.6824,18.7176,18.666518
49.8348,18.7223,18.671062
49.9872,18.7258,18.674406
50.1396,18.7294,18.67785
50.292,18.7341,18.682394
50.4444,18.7392,18.687338
50.5968,18.7432,18.691182
50.7492,18.7455,18.693326
50.9016,18.7453,18.69297
51.054,18.7425,18.690014
51.2064,18.7396,18.686958
51.3588,18.7362,18.683402
51.5112,18.7335,18.680546
51.6636,18.7326,18.67949
51.816,18.7336,18.680334
51.9684,18.7371,18.683678
52.1208,18.742,18.688422
52.2732,18.7481,18.694366
52.4256,18.7546,18.70071
52.578,18.7611,18.707054
52.7304,18.7667,18.712498
52.8828,18.7708,18.716442
53.0352,18.7739,18.719386
53.1876,18.7774,18.72273
53.34,18.7823,18.727475
53.4924,18.7866,18.731619
53.6448,18.79,18.734863
53.7972,18.7916,18.736307
53.9496,18.7923,18.736851
54.102,18.7917,18.736095
54.2544,18.7902,18.734439
54.4068,18.7894,18.733483
54.5592,18.7893,18.733227
54.7116,18.7889,18.732672
54.864,18.7865,18.730116
55.0164,18.7834,18.72686
55.1688,18.7793,18.722604
55.3212,18.7764,18.719548
55.4736,18.7756,18.718592
55.626,18.7775,18.720337
55.7784,18.7822,18.724881
55.9308,18.7891,18.731625
56.0832,18.7985,18.740869
56.2356,18.8066,18.748813
56.388,18.8147,18.756758
56.5404,18.8298,18.771702
56.6928,18.8601,18.801846
56.8452,18.9087,18.85029
56.9976,18.9708,18.912234
57.15,19.0391,18.980379
57.3024,19.1096,19.050723
57.4548,19.1792,19.120167
57.6072,19.2454,19.186211
57.7596,19.3063,19.246956
57.912,19.3618,19.3023
58.0644,19.413,19.353344
58.2168,19.4599,19.400089
58.3692,19.5037,19.443733
58.5216,19.5435,19.483377
58.674,19.58,19.519721
58.8264,19.6121,19.551666
58.9788,19.6401,19.57951
59.1312,19.6636,19.602854
59.2836,19.6837,19.622799
59.436,19.7008,19.639743
59.5884,19.7138,19.652588
59.7408,19.7272,19.665832
59.8932,19.7403,19.678776
60.0456,19.7523,19.690621
60.198,19.7655,19.703665
60.3504,19.7757,19.713709
60.5028,19.7832,19.721054
60.6552,19.7926,19.730298
60.8076,19.8014,19.738943
60.96,19.8107,19.748087
61.1124,19.8195,19.756731
61.2648,19.8272,19.764276
61.4172,19.8318,19.76872
61.5696,19.8359,19.772665
61.722,19.8385,19.775109
61.8744,19.8433,19.779754
62.0268,19.849,19.785298
62.1792,19.8567,19.792843
62.3316,19.8637,19.799687
62.484,19.8702,19.806032
62.6364,19.8769,19.812576
62.7888,19.8842,19.819721
62.9412,19.8917,19.827065
63.0936,19.899,19.83421
63.246,19.9062,19.841254
63.3984,19.9124,19.847299
63.5508,19.9186,19.853343
63.7032,19.9239,19.858488
63.8556,19.9304,19.864832
64.008,19.9373,19.871577
64.1604,19.9441,19.878221
64.3128,19.9502,19.884166
64.4652,19.9575,19.891311
64.6176,19.9638,19.897455
64.77,19.969,19.9025
64.9224,19.9745,19.907844
65.0748,19.9799,19.913089
65.2272,19.9858,19.918834
65.3796,19.9909,19.923778
65.532,19.9958,19.928523
65.6844,19.9997,19.932268
65.8368,20.0031,19.935512
65.9892,20.0069,19.939157
66.1416,20.0114,19.943502
66.294,20.0167,19.948646
66.4464,20.0216,19.953391
66.5988,20.0269,19.958536
66.7512,20.0321,19.96358
66.9036,20.0373,19.968625
67.056,20.0411,19.97227
67.2084,20.0445,19.975514
67.3608,20.0475,19.978359
67.5132,20.0503,19.981004
67.6656,20.0539,19.984449
67.818,20.058,19.988393
67.9704,20.0626,19.992838
68.1228,20.0668,19.996883
68.2752,20.0712,20.001128
68.4276,20.0756,20.005373
68.58,20.079,20.008617
68.7324,20.0824,20.011862
68.8848,20.0853,20.014607
69.0372,20.0892,20.018352
69.1896,20.0935,20.022497
69.342,20.0978,20.026641
69.4944,20.1017,20.030386
69.6468,20.1053,20.033831
69.7992,20.1098,20.038176
69.9516,20.1137,20.041921
70.104,20.118,20.046066
70.2564,20.1214,20.049311
70.4088,20.1253,20.053056
70.5612,20.1307,20.0583
70.7136,20.1367,20.064145
70.866,20.1435,20.07079
71.0184,20.1495,20.076635
71.1708,20.1553,20.08228
71.3232,20.1607,20.087525
71.4756,20.165,20.09167
71.628,20.1695,20.096015
71.7804,20.1741,20.10046
71.9328,20.1779,20.104105
72.0852,20.1818,20.10785
72.2376,20.1856,20.111495
72.39,20.19,20.11574
72.5424,20.1942,20.119785
72.6948,20.1989,20.12433
72.8472,20.2043,20.129575
72.9996,20.2088,20.13392
73.152,20.2117,20.136665
73.3044,20.2141,20.13891
73.4568,20.2167,20.141355
73.6092,20.22,20.1445
73.7616,20.2225,20.146845
73.914,20.2251,20.14929
74.0664,20.2268,20.150835
74.2188,20.2284,20.152281
74.3712,20.2298,20.153526
74.5236,20.2317,20.155271
74.676,20.233,20.156416
74.8284,20.2364,20.159661
74.9808,20.2412,20.164306
75.1332,20.2474,20.170351
75.2856,20.2519,20.174697
75.438,20.256,20.178642
75.5904,20.2595,20.181987
75.7428,20.2633,20.185632
75.8952,20.2674,20.189577
76.0476,20.27,20.192023
76.2,20.2722,20.194068
76.3524,20.2733,20.195013
76.5048,20.2755,20.197058
76.6572,20.2779,20.199303
76.8096,20.2808,20.202049
76.962,20.2835,20.204594
77.1144,20.2863,20.207239
77.2668,20.2894,20.210185
77.4192,20.2917,20.21233
77.5716,20.294,20.214475
77.724,20.2967,20.21702
77.8764,20.2999,20.220066
78.0288,20.3035,20.223511
78.1812,20.3053,20.225156
78.3336,20.3067,20.226402
78.486,20.308,20.227547
78.6384,20.31,20.229392
78.7908,20.3126,20.231838
78.9432,20.3148,20.233883
79.0956,20.3173,20.236229
79.248,20.3203,20.239074
79.4004,20.3242,20.242819
79.5528,20.3287,20.247165
79.7052,20.3341,20.25241
79.8576,20.338,20.256156
80.01,20.342,20.260001
80.1624,20.3462,20.264047
80.3148,20.3507,20.268392
80.4672,20.354,20.271538
80.6196,20.3568,20.274183
80.772,20.3592,20.276429
80.9244,20.3613,20.278374
81.0768,20.3638,20.28072
81.2292,20.366,20.282765
81.3816,20.3695,20.286111
81.534,20.3731,20.289556
81.6864,20.3771,20.293402
81.8388,20.3805,20.296647
81.9912,20.3836,20.299593
82.1436,20.3861,20.301938
82.296,20.3867,20.302384
82.4484,20.3865,20.30203
82.6008,20.3863,20.301675
82.7532,20.3866,20.301821
82.9056,20.3873,20.302366
83.058,20.3878,20.302712
83.2104,20.3887,20.303458
83.3628,20.3889,20.303503
83.5152,20.3894,20.303849
83.6676,20.3899,20.304195
83.82,20.3914,20.30554
83.9724,20.3942,20.308186
84.1248,20.3964,20.310232
84.2772,20.3982,20.311877
84.4296,20.3996,20.313123
84.582,20.4007,20.314069
84.7344,20.4033,20.316515
84.8868,20.4054,20.31846
85.0392,20.4098,20.322706
85.1916,20.4141,20.326852
85.344,20.4183,20.330898
85.4964,20.4214,20.333844
85.6488,20.4249,20.337189
85.8012,20.4289,20.341035
85.9536,20.4332,20.345181
86.106,20.4361,20.347927
86.2584,20.4385,20.350173
86.4108,20.4404,20.351919
86.5632,20.4435,20.354864
86.7156,20.4465,20.35771
86.868,20.4501,20.361156
87.0204,20.454,20.364902
87.1728,20.4586,20.369348
87.3252,20.4623,20.372894
87.4776,20.465,20.37544
87.63,20.4673,20.377586
87.7824,20.4703,20.380432
87.9348,20.4729,20.382878
88.0872,20.4759,20.385724
88.2396,20.4782,20.38787
88.392,20.4797,20.389216
88.5444,20.4805,20.389862
88.6968,20.4805,20.389708
88.8492,20.4804,20.389454
89.0016,20.4806,20.3895
89.154,20.4804,20.389146
89.3064,20.4816,20.390192
89.4588,20.4828,20.391238
89.6112,20.485,20.393284
89.7636,20.4878,20.39593
89.916,20.4904,20.398376
90.0684,20.4923,20.400122
90.2208,20.4929,20.400568
90.3732,20.4931,20.400614
90.5256,20.4929,20.40026
90.678,20.4925,20.399707
90.8304,20.4927,20.399753
90.9828,20.494,20.400899
91.1352,20.4962,20.402945
91.2876,20.4989,20.405491
91.44,20.5011,20.407537
91.5924,20.5036,20.409884
91.7448,20.5061,20.41223
91.8972,20.5084,20.414376
92.0496,20.5098,20.415622
92.202,20.5105,20.416169
92.3544,20.5103,20.415815
92.5068,20.5071,20.412461
92.6592,20.5037,20.408907
92.8116,20.4992,20.404254
92.964,20.4954,20.4003
93.1164,20.4915,20.396246
93.2688,20.4877,20.392293
93.4212,20.4843,20.388739
93.5736,20.4805,20.384785
93.726,20.4763,20.380432
93.8784,20.4713,20.375278
94.0308,20.4666,20.370424
94.1832,20.4611,20.364771
94.3356,20.4563,20.359817
94.488,20.4514,20.354764
94.6404,20.448,20.35121
94.7928,20.4447,20.347756
94.9452,20.4418,20.344703
95.0976,20.4392,20.341949
95.25,20.4368,20.339396
95.4024,20.4346,20.337042
95.5548,20.4313,20.333589
95.7072,20.4283,20.330435
95.8596,20.4255,20.327482
96.012,20.4235,20.325328
96.1644,20.4214,20.323075
96.3168,20.4197,20.321221
96.4692,20.4178,20.319168
96.6216,20.4162,20.317414
96.774,20.4148,20.315861
96.9264,20.4128,20.313708
97.0788,20.4121,20.312854
97.2312,20.4108,20.311401
97.3836,20.4097,20.310147
97.536,20.4081,20.308394
97.6884,20.4067,20.306841
97.8408,20.4055,20.305487
97.9932,20.4034,20.303234
98.1456,20.4017,20.301381
98.298,20.4004,20.299927
98.4504,20.3995,20.298874
98.6028,20.3977,20.296921
98.7552,20.3954,20.294468
98.9076,20.3932,20.292114
99.06,20.3917,20.290461
99.2124,20.3906,20.289208
99.3648,20.3905,20.288955
99.5172,20.3899,20.288201
99.6696,20.389,20.287148
99.822,20.3876,20.285595
99.9744,20.3865,20.284342
100.1268,20.3861,20.283789
100.2792,20.385,20.282535
100.4316,20.3841,20.281482
100.584,20.3827,20.279929
100.7364,20.3809,20.277976
100.8888,20.3784,20.275323
101.0412,20.3764,20.27317
101.1936,20.3749,20.271517
101.346,20.374,20.270464
101.4984,20.3731,20.269411
101.6508,20.3718,20.267958
101.8032,20.3717,20.267704
101.9556,20.3712,20.267051
102.108,20.3715,20.267198
102.2604,20.3712,20.266745
102.4128,20.3711,20.266492
102.5652,20.3716,20.266839
102.7176,20.3713,20.266386
102.87,20.3714,20.266334
103.0224,20.3714,20.266181
103.1748,20.3712,20.265828
103.3272,20.3714,20.265875
103.4796,20.3713,20.265622
103.632,20.3718,20.265969
103.7844,20.372,20.266016
103.9368,20.3715,20.265363
104.0892,20.3712,20.26491
104.2416,20.3709,20.264457
104.394,20.3721,20.265505
104.5464,20.3738,20.267052
104.6988,20.3761,20.269199
104.8512,20.378,20.270946
105.0036,20.3801,20.272893
105.156,20.382,20.274641
105.3084,20.3846,20.277088
105.4608,20.3887,20.281035
105.6132,20.3971,20.289282
105.7656,20.4098,20.30183
105.918,20.4244,20.316277
106.0704,20.4402,20.331924
106.2228,20.4597,20.351271
106.3752,20.4796,20.371019
106.5276,20.5002,20.391466
106.68,20.5192,20.410313
106.8324,20.5373,20.428261
106.9848,20.5544,20.445208
107.1372,20.571,20.461656
107.2896,20.5865,20.477003
107.442,20.6009,20.49125
107.5944,20.615,20.505198
107.7468,20.6313,20.521345
107.8992,20.6498,20.539693
108.0516,20.6702,20.55994
108.204,20.6918,20.581388
108.3564,20.7145,20.603935
108.5088,20.7373,20.626583
108.6612,20.7589,20.64803
108.8136,20.7776,20.666578
108.966,20.7952,20.684025
109.1184,20.8098,20.698473
109.2708,20.8236,20.71212
109.4232,20.8375,20.725868
109.5756,20.8492,20.737415
109.728,20.8594,20.747463
109.8804,20.8695,20.757411
110.0328,20.8784,20.766158
110.1852,20.8864,20.774006
110.3376,20.8938,20.781253
110.49,20.9006,20.787901
110.6424,20.9058,20.792949
110.7948,20.9112,20.798196
110.9472,20.9158,20.802644
111.0996,20.921,20.807692
111.252,20.9258,20.81234
111.4044,20.9316,20.817987
111.5568,20.9377,20.823935
111.7092,20.9437,20.829783
111.8616,20.9482,20.834131
112.014,20.951,20.836778
112.1664,20.953,20.838626
112.3188,20.9545,20.839974
112.4712,20.9563,20.841622
112.6236,20.958,20.84317
112.776,20.9594,20.844417
112.9284,20.9614,20.846265
113.0808,20.964,20.848713
113.2332,20.967,20.851561
113.3856,20.9699,20.854309
113.538,20.9734,20.857657
113.6904,20.9763,20.860405
113.8428,20.9792,20.863153
113.9952,20.9827,20.866501
114.1476,20.9865,20.870149
114.3,20.9891,20.872597
114.4524,20.9897,20.873045
114.6048,20.9903,20.873493
114.7572,20.9916,20.874641
114.9096,20.9938,20.876689
115.062,20.9959,20.878637
115.2144,20.998,20.880585
115.3668,21.0005,20.882933
115.5192,21.0033,20.885581
115.6716,21.0071,20.889229
115.824,21.0115,20.893477
115.9764,21.0151,20.896925
116.1288,21.0189,20.900574
116.2812,21.0229,20.904422
116.4336,21.0261,20.90747
116.586,21.0278,20.909018
116.7384,21.0292,20.910266
116.8908,21.0318,20.912714
117.0432,21.0345,20.915263
117.1956,21.0373,20.917911
117.348,21.0397,20.920159
117.5004,21.0423,20.922607
117.6528,21.0446,20.924756
117.8052,21.046,20.926004
117.9576,21.047,20.926852
118.11,21.0479,20.927601
118.2624,21.0485,20.928049
118.4148,21.0484,20.927797
118.5672,21.0479,20.927146
118.7196,21.0479,20.926994
